t (ms), vlv (ml), plv (mmHg), part (mmHg)
0.000000000000000000e+00,1.265699999999999932e+02,4.805180304000000291e+00
8.854413016743921006e+00,1.268700000000000045e+02,8.557152447294519959e+00
1.771963728259253301e+01,1.271700000000000017e+02,1.251532996040123713e+01
2.657405029933645935e+01,1.274599999999999937e+02,1.754880095577995291e+01
3.543927456518506602e+01,1.277399999999999949e+02,2.281772787676264613e+01
4.429368758192899946e+01,1.280000000000000000e+02,2.857993193846436952e+01
5.315891184777760969e+01,1.282400000000000091e+02,3.443222961413432159e+01
6.201332486452153603e+01,1.284499999999999886e+02,4.037040237341245330e+01
7.087854913037013205e+01,1.286299999999999955e+02,4.607869249102182607e+01
7.973296214711406549e+01,1.287599999999999909e+02,5.164006804446779597e+01
8.859818641296267572e+01,1.288499999999999943e+02,5.647697243998737093e+01
9.278213981647903097e+01,1.288799999999999955e+02,5.866563177494562353e+01
9.696609321999541464e+01,1.288700000000000045e+02,6.085429110990389745e+01
1.011500466235117699e+02,1.288100000000000023e+02,6.254086665207745455e+01
1.053340000270281251e+02,1.286999999999999886e+02,6.407117903778612344e+01
1.095179534305444946e+02,1.285500000000000114e+02,6.560149142349479234e+01
1.137019068340608214e+02,1.283499999999999943e+02,6.713180380920344703e+01
1.178858602375771909e+02,1.281100000000000136e+02,6.813192190046487440e+01
1.220698136410935462e+02,1.278299999999999983e+02,6.904606253857269849e+01
1.262537670446099156e+02,1.275100000000000051e+02,6.996020317668052257e+01
1.304377204481262709e+02,1.271500000000000057e+02,7.087434381478834666e+01
1.346216738516426403e+02,1.267500000000000000e+02,7.133446203897089788e+01
1.388056272551589814e+02,1.262999999999999972e+02,7.177481729130862220e+01
1.430003919077800560e+02,1.258199999999999932e+02,7.221631041251544048e+01
1.471843453112963971e+02,1.252999999999999972e+02,7.263722704652882101e+01
1.513682987148127381e+02,1.247500000000000000e+02,7.274639246288113270e+01
1.555522521183291360e+02,1.241700000000000017e+02,7.285555787923345861e+01
1.597362055218454771e+02,1.235699999999999932e+02,7.296472329558578451e+01
1.639201589253618465e+02,1.229399999999999977e+02,7.304437084300410277e+01
1.681041123288781876e+02,1.222900000000000063e+02,7.296494205025020108e+01
1.722880657323945570e+02,1.216200000000000045e+02,7.288551325749629939e+01
1.764720191359108981e+02,1.209300000000000068e+02,7.280608446474238349e+01
1.806559725394272675e+02,1.202300000000000040e+02,7.271495650696739688e+01
1.848399259429436370e+02,1.195199999999999960e+02,7.258952912373101185e+01
1.890238793464599780e+02,1.187900000000000063e+02,7.246410174049462682e+01
1.932078327499763475e+02,1.180499999999999972e+02,7.233867435725824180e+01
1.973917861534926885e+02,1.173100000000000023e+02,7.224312058790778224e+01
2.015757395570090580e+02,1.165600000000000023e+02,7.220252300393758560e+01
2.057705042096301042e+02,1.158100000000000023e+02,7.216182051664962671e+01
2.099544576131465021e+02,1.150600000000000023e+02,7.212122293267941586e+01
2.141384110166628147e+02,1.143100000000000023e+02,7.213065079869450358e+01
2.183223644201791842e+02,1.135699999999999932e+02,7.220059066239879542e+01
2.225063178236955537e+02,1.128199999999999932e+02,7.227053052610308725e+01
2.266902712272118947e+02,1.120799999999999983e+02,7.234047038980737909e+01
2.308742246307282642e+02,1.113400000000000034e+02,7.245495224463714123e+01
2.350581780342446336e+02,1.106200000000000045e+02,7.260582051475250864e+01
2.392421314377609747e+02,1.099099999999999966e+02,7.275668878486787605e+01
2.434260848412773441e+02,1.092099999999999937e+02,7.290755705498324346e+01
2.476100382447937136e+02,1.085400000000000063e+02,7.309137006495825517e+01
2.517939916483100546e+02,1.078799999999999955e+02,7.329306254664938081e+01
2.559887563009311009e+02,1.072600000000000051e+02,7.349527619754385910e+01
2.601727097044474704e+02,1.066599999999999966e+02,7.369696867923498473e+01
2.643566631079638114e+02,1.060999999999999943e+02,7.391417246205740810e+01
2.685406165114801524e+02,1.055600000000000023e+02,7.413658492042145554e+01
2.727245699149965503e+02,1.050400000000000063e+02,7.435899737878548876e+01
2.769085233185129482e+02,1.045199999999999960e+02,7.458140983714953620e+01
2.810924767220292324e+02,1.040100000000000051e+02,7.479587915334039394e+01
2.852764301255456303e+02,1.035000000000000000e+02,7.500890741021119368e+01
2.894603835290619145e+02,1.029800000000000040e+02,7.522193566708200763e+01
2.936443369325783692e+02,1.024500000000000028e+02,7.543496392395280736e+01
2.978282903360947103e+02,1.018900000000000006e+02,7.561070482565573059e+01
3.020122437396110513e+02,1.012999999999999972e+02,7.578424463950381096e+01
3.061961971431274492e+02,1.006899999999999977e+02,7.595778445335189133e+01
3.103801505466437902e+02,1.000699999999999932e+02,7.612839567646463479e+01
3.145641039501601313e+02,9.943999999999999773e+01,7.623234286521393699e+01
3.187588686027811491e+02,9.879999999999999716e+01,7.633655865135018814e+01
3.229428220062975470e+02,9.815999999999999659e+01,7.644050584009949034e+01
3.271267754098139449e+02,9.753000000000000114e+01,7.653024741244007600e+01
3.313107288133302291e+02,9.690000000000000568e+01,7.653449774900755642e+01
3.354946822168466269e+02,9.629000000000000625e+01,7.653874808557505105e+01
3.396786356203630248e+02,9.568999999999999773e+01,7.654299842214253147e+01
3.438625890238793659e+02,9.512000000000000455e+01,7.651605625809965261e+01
3.480465424273957069e+02,9.456000000000000227e+01,7.639050554374010460e+01
3.522304958309119911e+02,9.401999999999999602e+01,7.626495482938055659e+01
3.564144492344284458e+02,9.350000000000000000e+01,7.613940411502100858e+01
3.605984026379447869e+02,9.298999999999999488e+01,7.595978430258266201e+01
3.647823560414610711e+02,9.248999999999999488e+01,7.567432831020234119e+01
3.689663094449774690e+02,9.200000000000000000e+01,7.538887231782202036e+01
3.731502628484938668e+02,9.151000000000000512e+01,7.510341632544169954e+01
3.773450275011148847e+02,9.104000000000000625e+01,7.473389630991655963e+01
3.815289809046312257e+02,9.056999999999999318e+01,7.425843086656679759e+01
3.857129343081476236e+02,9.010999999999999943e+01,7.378296542321702134e+01
3.898968877116639646e+02,8.964000000000000057e+01,7.330749997986725930e+01
3.940808411151803625e+02,8.918999999999999773e+01,7.269727307706584440e+01
3.982647945186967036e+02,8.875000000000000000e+01,7.197055584850971854e+01
4.024487479222131014e+02,8.832999999999999829e+01,7.124383861995357847e+01
4.066327013257294425e+02,8.793000000000000682e+01,7.051712139139745261e+01
4.108166547292457267e+02,8.756999999999999318e+01,6.917297546366816619e+01
4.150006081327621246e+02,8.725000000000000000e+01,6.747267607484209861e+01
4.191845615362785225e+02,8.696999999999999886e+01,6.577237668601601683e+01
4.233685149397948635e+02,8.673999999999999488e+01,6.407207729718997768e+01
4.275524683433111477e+02,8.656000000000000227e+01,6.108605709319573407e+01
4.317364217468274887e+02,8.643999999999999773e+01,5.762931904378743297e+01
4.359311863994486771e+02,8.635999999999999943e+01,5.416364885471644897e+01
4.401151398029649613e+02,8.631999999999999318e+01,5.070691080530819050e+01
4.442990932064813023e+02,8.629000000000000625e+01,4.710236292222942467e+01
4.484830466099977002e+02,8.626999999999999602e+01,4.346805645324556622e+01
4.526670000135140981e+02,8.626000000000000512e+01,3.983374998426170066e+01
4.568509534170304391e+02,8.623000000000000398e+01,3.619944351527789195e+01
4.610349068205467233e+02,8.618000000000000682e+01,3.343995981783449167e+01
4.652188602240631212e+02,8.610999999999999943e+01,3.074608782825653108e+01
4.694028136275795191e+02,8.600000000000000000e+01,2.805221583867857049e+01
4.735867670310958601e+02,8.585999999999999943e+01,2.538027424531313514e+01
4.777707204346121443e+02,8.570000000000000284e+01,2.346810854325505957e+01
4.819546738381285991e+02,8.553000000000000114e+01,2.155594284119690585e+01
4.861386272416448833e+02,8.534000000000000341e+01,1.964377713913883028e+01
4.903333918942659579e+02,8.514000000000000057e+01,1.779770550088062109e+01
4.945173452977822990e+02,8.492000000000000171e+01,1.643851084322273692e+01
4.987012987012986969e+02,8.470000000000000284e+01,1.507931618556483144e+01
5.028852521048150948e+02,8.446999999999999886e+01,1.372012152790692596e+01
5.070692055083314358e+02,8.423999999999999488e+01,1.244938439050451429e+01
5.112531589118477200e+02,8.401000000000000512e+01,1.148110572070191537e+01
5.154371123153641747e+02,8.376999999999999602e+01,1.051282705089927560e+01
5.196210657188804589e+02,8.353000000000000114e+01,9.544548381096674916e+00
5.238050191223968568e+02,8.329000000000000625e+01,8.680495662576429794e+00
5.279889725259132547e+02,8.306000000000000227e+01,8.033797901324819080e+00
5.321729259294295389e+02,8.285999999999999943e+01,7.387100140073226129e+00
5.363568793329459368e+02,8.268000000000000682e+01,6.740402378821616303e+00
5.405408327364623347e+02,8.253000000000000114e+01,6.203045397227320734e+00
5.447247861399787325e+02,8.242000000000000171e+01,5.815493915946207792e+00
5.489195507925996935e+02,8.234999999999999432e+01,5.426941009648876602e+00
5.531035041961160914e+02,8.232999999999999829e+01,5.039389528367763660e+00
5.572874575996323756e+02,8.235999999999999943e+01,4.754587122805920885e+00
5.614714110031487735e+02,8.242000000000000171e+01,4.563747434535359915e+00
5.656553644066650577e+02,8.251999999999999602e+01,4.372907746264803386e+00
5.698393178101814556e+02,8.267000000000000171e+01,4.182068057994241528e+00
5.740232712136978535e+02,8.287000000000000455e+01,4.074501069598641223e+00
5.782072246172141377e+02,8.312000000000000455e+01,4.017938609876453349e+00
5.823911780207305355e+02,8.340999999999999659e+01,3.961376150154263698e+00
5.865751314242469334e+02,8.375000000000000000e+01,3.904813690432074047e+00
5.907590848277632176e+02,8.414000000000000057e+01,3.899954888187120439e+00
5.949430382312796155e+02,8.459999999999999432e+01,3.915405400038052708e+00
5.991269916347960134e+02,8.510999999999999943e+01,3.930855911888984977e+00
6.033109450383122976e+02,8.567000000000000171e+01,3.946306423739916802e+00
6.074948984418286955e+02,8.626999999999999602e+01,3.985232351053257016e+00
6.116896630944497701e+02,8.690000000000000568e+01,4.029573114992881955e+00
6.158736164979661680e+02,8.754000000000000625e+01,4.073799598613073947e+00
6.200575699014824522e+02,8.818999999999999773e+01,4.118026082233265939e+00
6.242415233049988501e+02,8.882999999999999829e+01,4.182134232003641650e+00
6.284254767085151343e+02,8.945999999999999375e+01,4.248060730910234284e+00
6.326094301120315322e+02,9.006000000000000227e+01,4.313987229816828695e+00
6.367933835155479301e+02,9.062999999999999545e+01,4.380175652005287468e+00
6.409773369190642143e+02,9.118000000000000682e+01,4.464774425546518266e+00
6.451612903225806122e+02,9.170999999999999375e+01,4.549373199087751729e+00
6.493452437260970100e+02,9.223000000000000398e+01,4.633971972628985192e+00
6.535291971296132942e+02,9.275000000000000000e+01,4.720320579339904121e+00
6.577131505331296921e+02,9.326999999999999602e+01,4.820563906086222872e+00
6.618971039366460900e+02,9.381000000000000227e+01,4.920807232832541622e+00
6.660918685892671647e+02,9.437000000000000455e+01,5.021309586262958646e+00
6.702758219927834489e+02,9.495000000000000284e+01,5.124230900493663476e+00
6.744597753962998468e+02,9.557999999999999829e+01,5.237091034735927408e+00
6.786437287998161310e+02,9.623000000000000398e+01,5.349951168978187788e+00
6.828276822033325288e+02,9.690999999999999659e+01,5.462811303220451720e+00
6.870116356068489267e+02,9.760999999999999943e+01,5.578644796129633043e+00
6.911955890103652109e+02,9.834000000000000341e+01,5.701094012072704942e+00
6.953795424138816088e+02,9.910999999999999943e+01,5.823543228015779505e+00
6.995634958173980067e+02,9.992000000000000171e+01,5.945992443958854956e+00
7.037474492209142909e+02,1.007800000000000011e+02,6.071118034466524094e+00
7.079314026244306888e+02,1.016899999999999977e+02,6.200128608476481951e+00
7.121153560279470867e+02,1.026599999999999966e+02,6.329139182486438919e+00
7.162993094314633709e+02,1.036800000000000068e+02,6.458149756496393223e+00
7.204832628349797687e+02,1.047900000000000063e+02,6.588947353177085908e+00
7.246780274876008434e+02,1.059599999999999937e+02,6.721834027419636648e+00
7.288619808911172413e+02,1.071899999999999977e+02,6.854378210233727842e+00
7.330459342946335255e+02,1.084500000000000028e+02,6.986922393047814595e+00
7.372298876981499234e+02,1.097300000000000040e+02,7.119773212035487298e+00
7.414138411016662076e+02,1.110000000000000000e+02,7.252823288573941873e+00
7.455977945051826055e+02,1.122600000000000051e+02,7.385873365112399114e+00
7.497817479086990033e+02,1.134800000000000040e+02,7.518923441650857242e+00
7.539657013122152875e+02,1.146400000000000006e+02,7.650198257751892328e+00
7.581496547157316854e+02,1.157300000000000040e+02,7.780726477960723031e+00
7.623336081192480833e+02,1.167399999999999949e+02,7.911254698169554622e+00
7.665175615227643675e+02,1.176800000000000068e+02,8.041782918378380884e+00
7.707015149262807654e+02,1.185600000000000023e+02,8.167861648322851664e+00
7.748854683297971633e+02,1.193900000000000006e+02,8.292840296855295890e+00
7.790694217333134475e+02,1.201899999999999977e+02,8.417818945387736562e+00
7.832641863859345221e+02,1.209500000000000028e+02,8.543120536164449774e+00
7.874481397894509200e+02,1.217000000000000028e+02,8.660360914849324132e+00
7.916320931929673179e+02,1.224399999999999977e+02,8.776762243232884231e+00
7.958160465964836021e+02,1.231800000000000068e+02,8.893163571616440777e+00
8.000000000000000000e+02,1.239300000000000068e+02,9.009564900000000875e+00
